1.4 2.2 3.3 4.4 5.5 8.8 10.0 12.0 14.0 18.0 5.0 29.0 33.0 44.0 55.0 66.0 77.0 88.0 99.0 111.0 112.0 113.0 114.0 115.0 116.0
116.0 115.0 111.0 100.0 99.0 98.0 90.0 80.0 75.0 70.0 65.0 60.0 55.0 50.0 45.0 40.0 35.0 30.0 25.0 20.0 15.0 14.0 13.0 5.0 0.0
1.4 2.2 3.3 4.4 5.5 8.8 10.0 12.0 14.0 18.0 5.0 29.0 33.0 44.0 55.0 66.0 77.0 88.0 99.0 111.0 112.0 113.0 114.0 115.0 116.0
116.0 115.0 111.0 100.0 99.0 98.0 90.0 80.0 75.0 70.0 65.0 60.0 55.0 50.0 45.0 40.0 35.0 30.0 25.0 20.0 15.0 14.0 13.0 5.0 0.0
1.4 2.2 3.3 4.4 5.5 8.8 10.0 12.0 14.0 18.0 5.0 29.0 33.0 44.0 55.0 66.0 77.0 88.0 99.0 111.0 112.0 113.0 114.0 115.0 116.0
116.0 115.0 111.0 100.0 99.0 98.0 90.0 80.0 75.0 70.0 65.0 60.0 55.0 50.0 45.0 40.0 35.0 30.0 25.0 20.0 15.0 14.0 13.0 5.0 0.0
1.4 2.2 3.3 4.4 5.5 8.8 10.0 12.0 14.0 18.0 5.0 29.0 33.0 44.0 55.0 66.0 77.0 88.0 99.0 111.0 112.0 113.0 114.0 115.0 116.0
116.0 115.0 111.0 100.0 99.0 98.0 90.0 80.0 75.0 70.0 65.0 60.0 55.0 50.0 45.0 40.0 35.0 30.0 25.0 20.0 15.0 14.0 13.0 5.0 0.0
1.4 2.2 3.3 4.4 5.5 8.8 10.0 12.0 14.0 18.0 5.0 29.0 33.0 44.0 55.0 66.0 77.0 88.0 99.0 111.0 112.0 113.0 114.0 115.0 116.0
116.0 115.0 111.0 100.0 99.0 98.0 90.0 80.0 75.0 70.0 65.0 60.0 55.0 50.0 45.0 40.0 35.0 30.0 25.0 20.0 15.0 14.0 13.0 5.0 0.0
1.4 2.2 3.3 4.4 5.5 8.8 10.0 12.0 14.0 18.0 5.0 29.0 33.0 44.0 55.0 66.0 77.0 88.0 99.0 111.0 112.0 113.0 114.0 115.0 116.0
116.0 115.0 111.0 100.0 99.0 98.0 90.0 80.0 75.0 70.0 65.0 60.0 55.0 50.0 45.0 40.0 35.0 30.0 25.0 20.0 15.0 14.0 13.0 5.0 0.0
1.4 2.2 3.3 4.4 5.5 8.8 10.0 12.0 14.0 18.0 5.0 29.0 33.0 44.0 55.0 66.0 77.0 88.0 99.0 111.0 112.0 113.0 114.0 115.0 116.0
116.0 115.0 111.0 100.0 99.0 98.0 90.0 80.0 75.0 70.0 65.0 60.0 55.0 50.0 45.0 40.0 35.0 30.0 25.0 20.0 15.0 14.0 13.0 5.0 0.0
1.4 2.2 3.3 4.4 5.5 8.8 10.0 12.0 14.0 18.0 5.0 29.0 33.0 44.0 55.0 66.0 77.0 88.0 99.0 111.0 112.0 113.0 114.0 115.0 116.0
116.0 115.0 111.0 100.0 99.0 98.0 90.0 80.0 75.0 70.0 65.0 60.0 55.0 50.0 45.0 40.0 35.0 30.0 25.0 20.0 15.0 14.0 13.0 5.0 0.0
1.4 2.2 3.3 4.4 5.5 8.8 10.0 12.0 14.0 18.0 5.0 29.0 33.0 44.0 55.0 66.0 77.0 88.0 99.0 111.0 112.0 113.0 114.0 115.0 116.0
116.0 115.0 111.0 100.0 99.0 98.0 90.0 80.0 75.0 70.0 65.0 60.0 55.0 50.0 45.0 40.0 35.0 30.0 25.0 20.0 15.0 14.0 13.0 5.0 0.0
1.4 2.2 3.3 4.4 5.5 8.8 10.0 12.0 14.0 18.0 5.0 29.0 33.0 44.0 55.0 66.0 77.0 88.0 99.0 111.0 112.0 113.0 114.0 115.0 116.0
116.0 115.0 111.0 100.0 99.0 98.0 90.0 80.0 75.0 70.0 65.0 60.0 55.0 50.0 45.0 40.0 35.0 30.0 25.0 20.0 15.0 14.0 13.0 5.0 0.0
1.4 2.2 3.3 4.4 5.5 8.8 10.0 12.0 14.0 18.0 5.0 29.0 33.0 44.0 55.0 66.0 77.0 88.0 99.0 111.0 112.0 113.0 114.0 115.0 116.0
116.0 115.0 111.0 100.0 99.0 98.0 90.0 80.0 75.0 70.0 65.0 60.0 55.0 50.0 45.0 40.0 35.0 30.0 25.0 20.0 15.0 14.0 13.0 5.0 0.0
1.4 2.2 3.3 4.4 5.5 8.8 10.0 12.0 14.0 18.0 5.0 29.0 33.0 44.0 55.0 66.0 77.0 88.0 99.0 111.0 112.0 113.0 114.0 115.0 116.0
116.0 115.0 111.0 100.0 99.0 98.0 90.0 80.0 75.0 70.0 65.0 60.0 55.0 50.0 45.0 40.0 35.0 30.0 25.0 20.0 15.0 14.0 13.0 5.0 0.0
1.4 2.2 3.3 4.4 5.5 8.8 10.0 12.0 14.0 18.0 5.0 29.0 33.0 44.0 55.0 66.0 77.0 88.0 99.0 111.0 112.0 113.0 114.0 115.0 116.0
116.0 115.0 111.0 100.0 99.0 98.0 90.0 80.0 75.0 70.0 65.0 60.0 55.0 50.0 45.0 40.0 35.0 30.0 25.0 20.0 15.0 14.0 13.0 5.0 0.0
1.4 2.2 3.3 4.4 5.5 8.8 10.0 12.0 14.0 18.0 5.0 29.0 33.0 44.0 55.0 66.0 77.0 88.0 99.0 111.0 112.0 113.0 114.0 115.0 116.0
116.0 115.0 111.0 100.0 99.0 98.0 90.0 80.0 75.0 70.0 65.0 60.0 55.0 50.0 45.0 40.0 35.0 30.0 25.0 20.0 15.0 14.0 13.0 5.0 0.0
1.4 2.2 3.3 4.4 5.5 8.8 10.0 12.0 14.0 18.0 5.0 29.0 33.0 44.0 55.0 66.0 77.0 88.0 99.0 111.0 112.0 113.0 114.0 115.0 116.0
116.0 115.0 111.0 100.0 99.0 98.0 90.0 80.0 75.0 70.0 65.0 60.0 55.0 50.0 45.0 40.0 35.0 30.0 25.0 20.0 15.0 14.0 13.0 5.0 0.0
1.4 2.2 3.3 4.4 5.5 8.8 10.0 12.0 14.0 18.0 5.0 29.0 33.0 44.0 55.0 66.0 77.0 88.0 99.0 111.0 112.0 113.0 114.0 115.0 116.0
116.0 115.0 111.0 100.0 99.0 98.0 90.0 80.0 75.0 70.0 65.0 60.0 55.0 50.0 45.0 40.0 35.0 30.0 25.0 20.0 15.0 14.0 13.0 5.0 0.0
1.4 2.2 3.3 4.4 5.5 8.8 10.0 12.0 14.0 18.0 5.0 29.0 33.0 44.0 55.0 66.0 77.0 88.0 99.0 111.0 112.0 113.0 114.0 115.0 116.0
116.0 115.0 111.0 100.0 99.0 98.0 90.0 80.0 75.0 70.0 65.0 60.0 55.0 50.0 45.0 40.0 35.0 30.0 25.0 20.0 15.0 14.0 13.0 5.0 0.0
1.4 2.2 3.3 4.4 5.5 8.8 10.0 12.0 14.0 18.0 5.0 29.0 33.0 44.0 55.0 66.0 77.0 88.0 99.0 111.0 112.0 113.0 114.0 115.0 116.0
116.0 115.0 111.0 100.0 99.0 98.0 90.0 80.0 75.0 70.0 65.0 60.0 55.0 50.0 45.0 40.0 35.0 30.0 25.0 20.0 15.0 14.0 13.0 5.0 0.0
1.4 2.2 3.3 4.4 5.5 8.8 10.0 12.0 14.0 18.0 5.0 29.0 33.0 44.0 55.0 66.0 77.0 88.0 99.0 111.0 112.0 113.0 114.0 115.0 116.0
116.0 115.0 111.0 100.0 99.0 98.0 90.0 80.0 75.0 70.0 65.0 60.0 55.0 50.0 45.0 40.0 35.0 30.0 25.0 20.0 15.0 14.0 13.0 5.0 0.0
1.4 2.2 3.3 4.4 5.5 8.8 10.0 12.0 14.0 18.0 5.0 29.0 33.0 44.0 55.0 66.0 77.0 88.0 99.0 111.0 112.0 113.0 114.0 115.0 116.0
116.0 115.0 111.0 100.0 99.0 98.0 90.0 80.0 75.0 70.0 65.0 60.0 55.0 50.0 45.0 40.0 35.0 30.0 25.0 20.0 15.0 14.0 13.0 5.0 0.0
1.4 2.2 3.3 4.4 5.5 8.8 10.0 12.0 14.0 18.0 5.0 29.0 33.0 44.0 55.0 66.0 77.0 88.0 99.0 111.0 112.0 113.0 114.0 115.0 116.0
116.0 115.0 111.0 100.0 99.0 98.0 90.0 80.0 75.0 70.0 65.0 60.0 55.0 50.0 45.0 40.0 35.0 30.0 25.0 20.0 15.0 14.0 13.0 5.0 0.0
1.4 2.2 3.3 4.4 5.5 8.8 10.0 12.0 14.0 18.0 5.0 29.0 33.0 44.0 55.0 66.0 77.0 88.0 99.0 111.0 112.0 113.0 114.0 115.0 116.0
116.0 115.0 111.0 100.0 99.0 98.0 90.0 80.0 75.0 70.0 65.0 60.0 55.0 50.0 45.0 40.0 35.0 30.0 25.0 20.0 15.0 14.0 13.0 5.0 0.0
1.4 2.2 3.3 4.4 5.5 8.8 10.0 12.0 14.0 18.0 5.0 29.0 33.0 44.0 55.0 66.0 77.0 88.0 99.0 111.0 112.0 113.0 114.0 115.0 116.0
116.0 115.0 111.0 100.0 99.0 98.0 90.0 80.0 75.0 70.0 65.0 60.0 55.0 50.0 45.0 40.0 35.0 30.0 25.0 20.0 15.0 14.0 13.0 5.0 0.0
1.4 2.2 3.3 4.4 5.5 8.8 10.0 12.0 14.0 18.0 5.0 29.0 33.0 44.0 55.0 66.0 77.0 88.0 99.0 111.0 112.0 113.0 114.0 115.0 116.0
116.0 115.0 111.0 100.0 99.0 98.0 90.0 80.0 75.0 70.0 65.0 60.0 55.0 50.0 45.0 40.0 35.0 30.0 25.0 20.0 15.0 14.0 13.0 5.0 0.0
1.4 2.2 3.3 4.4 5.5 8.8 10.0 12.0 14.0 18.0 5.0 29.0 33.0 44.0 55.0 66.0 77.0 88.0 99.0 111.0 112.0 113.0 114.0 115.0 116.0
116.0 115.0 111.0 100.0 99.0 98.0 90.0 80.0 75.0 70.0 65.0 60.0 55.0 50.0 45.0 40.0 35.0 30.0 25.0 20.0 15.0 14.0 13.0 5.0 0.0
1.4 2.2 3.3 4.4 5.5 8.8 10.0 12.0 14.0 18.0 5.0 29.0 33.0 44.0 55.0 66.0 77.0 88.0 99.0 111.0 112.0 113.0 114.0 115.0 116.0
116.0 115.0 111.0 100.0 99.0 98.0 90.0 80.0 75.0 70.0 65.0 60.0 55.0 50.0 45.0 40.0 35.0 30.0 25.0 20.0 15.0 14.0 13.0 5.0 0.0
1.4 2.2 3.3 4.4 5.5 8.8 10.0 12.0 14.0 18.0 5.0 29.0 33.0 44.0 55.0 66.0 77.0 88.0 99.0 111.0 112.0 113.0 114.0 115.0 116.0
116.0 115.0 111.0 100.0 99.0 98.0 90.0 80.0 75.0 70.0 65.0 60.0 55.0 50.0 45.0 40.0 35.0 30.0 25.0 20.0 15.0 14.0 13.0 5.0 0.0
1.4 2.2 3.3 4.4 5.5 8.8 10.0 12.0 14.0 18.0 5.0 29.0 33.0 44.0 55.0 66.0 77.0 88.0 99.0 111.0 112.0 113.0 114.0 115.0 116.0
116.0 115.0 111.0 100.0 99.0 98.0 90.0 80.0 75.0 70.0 65.0 60.0 55.0 50.0 45.0 40.0 35.0 30.0 25.0 20.0 15.0 14.0 13.0 5.0 0.0
1.4 2.2 3.3 4.4 5.5 8.8 10.0 12.0 14.0 18.0 5.0 29.0 33.0 44.0 55.0 66.0 77.0 88.0 99.0 111.0 112.0 113.0 114.0 115.0 116.0
116.0 115.0 111.0 100.0 99.0 98.0 90.0 80.0 75.0 70.0 65.0 60.0 55.0 50.0 45.0 40.0 35.0 30.0 25.0 20.0 15.0 14.0 13.0 5.0 0.0
1.4 2.2 3.3 4.4 5.5 8.8 10.0 12.0 14.0 18.0 5.0 29.0 33.0 44.0 55.0 66.0 77.0 88.0 99.0 111.0 112.0 113.0 114.0 115.0 116.0
116.0 115.0 111.0 100.0 99.0 98.0 90.0 80.0 75.0 70.0 65.0 60.0 55.0 50.0 45.0 40.0 35.0 30.0 25.0 20.0 15.0 14.0 13.0 5.0 0.0
1.4 2.2 3.3 4.4 5.5 8.8 10.0 12.0 14.0 18.0 5.0 29.0 33.0 44.0 55.0 66.0 77.0 88.0 99.0 111.0 112.0 113.0 114.0 115.0 116.0
116.0 115.0 111.0 100.0 99.0 98.0 90.0 80.0 75.0 70.0 65.0 60.0 55.0 50.0 45.0 40.0 35.0 30.0 25.0 20.0 15.0 14.0 13.0 5.0 0.0
1.4 2.2 3.3 4.4 5.5 8.8 10.0 12.0 14.0 18.0 5.0 29.0 33.0 44.0 55.0 66.0 77.0 88.0 99.0 111.0 112.0 113.0 114.0 115.0 116.0
116.0 115.0 111.0 100.0 99.0 98.0 90.0 80.0 75.0 70.0 65.0 60.0 55.0 50.0 45.0 40.0 35.0 30.0 25.0 20.0 15.0 14.0 13.0 5.0 0.0
1.4 2.2 3.3 4.4 5.5 8.8 10.0 12.0 14.0 18.0 5.0 29.0 33.0 44.0 55.0 66.0 77.0 88.0 99.0 111.0 112.0 113.0 114.0 115.0 116.0
116.0 115.0 111.0 100.0 99.0 98.0 90.0 80.0 75.0 70.0 65.0 60.0 55.0 50.0 45.0 40.0 35.0 30.0 25.0 20.0 15.0 14.0 13.0 5.0 0.0
1.4 2.2 3.3 4.4 5.5 8.8 10.0 12.0 14.0 18.0 5.0 29.0 33.0 44.0 55.0 66.0 77.0 88.0 99.0 111.0 112.0 113.0 114.0 115.0 116.0
116.0 115.0 111.0 100.0 99.0 98.0 90.0 80.0 75.0 70.0 65.0 60.0 55.0 50.0 45.0 40.0 35.0 30.0 25.0 20.0 15.0 14.0 13.0 5.0 0.0
1.4 2.2 3.3 4.4 5.5 8.8 10.0 12.0 14.0 18.0 5.0 29.0 33.0 44.0 55.0 66.0 77.0 88.0 99.0 111.0 112.0 113.0 114.0 115.0 116.0
116.0 115.0 111.0 100.0 99.0 98.0 90.0 80.0 75.0 70.0 65.0 60.0 55.0 50.0 45.0 40.0 35.0 30.0 25.0 20.0 15.0 14.0 13.0 5.0 0.0
1.4 2.2 3.3 4.4 5.5 8.8 10.0 12.0 14.0 18.0 5.0 29.0 33.0 44.0 55.0 66.0 77.0 88.0 99.0 111.0 112.0 113.0 114.0 115.0 116.0
116.0 115.0 111.0 100.0 99.0 98.0 90.0 80.0 75.0 70.0 65.0 60.0 55.0 50.0 45.0 40.0 35.0 30.0 25.0 20.0 15.0 14.0 13.0 5.0 0.0
1.4 2.2 3.3 4.4 5.5 8.8 10.0 12.0 14.0 18.0 5.0 29.0 33.0 44.0 55.0 66.0 77.0 88.0 99.0 111.0 112.0 113.0 114.0 115.0 116.0
116.0 115.0 111.0 100.0 99.0 98.0 90.0 80.0 75.0 70.0 65.0 60.0 55.0 50.0 45.0 40.0 35.0 30.0 25.0 20.0 15.0 14.0 13.0 5.0 0.0
1.4 2.2 3.3 4.4 5.5 8.8 10.0 12.0 14.0 18.0 5.0 29.0 33.0 44.0 55.0 66.0 77.0 88.0 99.0 111.0 112.0 113.0 114.0 115.0 116.0
116.0 115.0 111.0 100.0 99.0 98.0 90.0 80.0 75.0 70.0 65.0 60.0 55.0 50.0 45.0 40.0 35.0 30.0 25.0 20.0 15.0 14.0 13.0 5.0 0.0
1.4 2.2 3.3 4.4 5.5 8.8 10.0 12.0 14.0 18.0 5.0 29.0 33.0 44.0 55.0 66.0 77.0 88.0 99.0 111.0 112.0 113.0 114.0 115.0 116.0
116.0 115.0 111.0 100.0 99.0 98.0 90.0 80.0 75.0 70.0 65.0 60.0 55.0 50.0 45.0 40.0 35.0 30.0 25.0 20.0 15.0 14.0 13.0 5.0 0.0
1.4 2.2 3.3 4.4 5.5 8.8 10.0 12.0 14.0 18.0 5.0 29.0 33.0 44.0 55.0 66.0 77.0 88.0 99.0 111.0 112.0 113.0 114.0 115.0 116.0
116.0 115.0 111.0 100.0 99.0 98.0 90.0 80.0 75.0 70.0 65.0 60.0 55.0 50.0 45.0 40.0 35.0 30.0 25.0 20.0 15.0 14.0 13.0 5.0 0.0
1.4 2.2 3.3 4.4 5.5 8.8 10.0 12.0 14.0 18.0 5.0 29.0 33.0 44.0 55.0 66.0 77.0 88.0 99.0 111.0 112.0 113.0 114.0 115.0 116.0
116.0 115.0 111.0 100.0 99.0 98.0 90.0 80.0 75.0 70.0 65.0 60.0 55.0 50.0 45.0 40.0 35.0 30.0 25.0 20.0 15.0 14.0 13.0 5.0 0.0
1.4 2.2 3.3 4.4 5.5 8.8 10.0 12.0 14.0 18.0 5.0 29.0 33.0 44.0 55.0 66.0 77.0 88.0 99.0 111.0 112.0 113.0 114.0 115.0 116.0
116.0 115.0 111.0 100.0 99.0 98.0 90.0 80.0 75.0 70.0 65.0 60.0 55.0 50.0 45.0 40.0 35.0 30.0 25.0 20.0 15.0 14.0 13.0 5.0 0.0
1.4 2.2 3.3 4.4 5.5 8.8 10.0 12.0 14.0 18.0 5.0 29.0 33.0 44.0 55.0 66.0 77.0 88.0 99.0 111.0 112.0 113.0 114.0 115.0 116.0
116.0 115.0 111.0 100.0 99.0 98.0 90.0 80.0 75.0 70.0 65.0 60.0 55.0 50.0 45.0 40.0 35.0 30.0 25.0 20.0 15.0 14.0 13.0 5.0 0.0
1.4 2.2 3.3 4.4 5.5 8.8 10.0 12.0 14.0 18.0 5.0 29.0 33.0 44.0 55.0 66.0 77.0 88.0 99.0 111.0 112.0 113.0 114.0 115.0 116.0
116.0 115.0 111.0 100.0 99.0 98.0 90.0 80.0 75.0 70.0 65.0 60.0 55.0 50.0 45.0 40.0 35.0 30.0 25.0 20.0 15.0 14.0 13.0 5.0 0.0
1.4 2.2 3.3 4.4 5.5 8.8 10.0 12.0 14.0 18.0 5.0 29.0 33.0 44.0 55.0 66.0 77.0 88.0 99.0 111.0 112.0 113.0 114.0 115.0 116.0
116.0 115.0 111.0 100.0 99.0 98.0 90.0 80.0 75.0 70.0 65.0 60.0 55.0 50.0 45.0 40.0 35.0 30.0 25.0 20.0 15.0 14.0 13.0 5.0 0.0
1.4 2.2 3.3 4.4 5.5 8.8 10.0 12.0 14.0 18.0 5.0 29.0 33.0 44.0 55.0 66.0 77.0 88.0 99.0 111.0 112.0 113.0 114.0 115.0 116.0
116.0 115.0 111.0 100.0 99.0 98.0 90.0 80.0 75.0 70.0 65.0 60.0 55.0 50.0 45.0 40.0 35.0 30.0 25.0 20.0 15.0 14.0 13.0 5.0 0.0
1.4 2.2 3.3 4.4 5.5 8.8 10.0 12.0 14.0 18.0 5.0 29.0 33.0 44.0 55.0 66.0 77.0 88.0 99.0 111.0 112.0 113.0 114.0 115.0 116.0
116.0 115.0 111.0 100.0 99.0 98.0 90.0 80.0 75.0 70.0 65.0 60.0 55.0 50.0 45.0 40.0 35.0 30.0 25.0 20.0 15.0 14.0 13.0 5.0 0.0
1.4 2.2 3.3 4.4 5.5 8.8 10.0 12.0 14.0 18.0 5.0 29.0 33.0 44.0 55.0 66.0 77.0 88.0 99.0 111.0 112.0 113.0 114.0 115.0 116.0
116.0 115.0 111.0 100.0 99.0 98.0 90.0 80.0 75.0 70.0 65.0 60.0 55.0 50.0 45.0 40.0 35.0 30.0 25.0 20.0 15.0 14.0 13.0 5.0 0.0
1.4 2.2 3.3 4.4 5.5 8.8 10.0 12.0 14.0 18.0 5.0 29.0 33.0 44.0 55.0 66.0 77.0 88.0 99.0 111.0 112.0 113.0 114.0 115.0 116.0
116.0 115.0 111.0 100.0 99.0 98.0 90.0 80.0 75.0 70.0 65.0 60.0 55.0 50.0 45.0 40.0 35.0 30.0 25.0 20.0 15.0 14.0 13.0 5.0 0.0
1.4 2.2 3.3 4.4 5.5 8.8 10.0 12.0 14.0 18.0 5.0 29.0 33.0 44.0 55.0 66.0 77.0 88.0 99.0 111.0 112.0 113.0 114.0 115.0 116.0
116.0 115.0 111.0 100.0 99.0 98.0 90.0 80.0 75.0 70.0 65.0 60.0 55.0 50.0 45.0 40.0 35.0 30.0 25.0 20.0 15.0 14.0 13.0 5.0 0.0
1.4 2.2 3.3 4.4 5.5 8.8 10.0 12.0 14.0 18.0 5.0 29.0 33.0 44.0 55.0 66.0 77.0 88.0 99.0 111.0 112.0 113.0 114.0 115.0 116.0
116.0 115.0 111.0 100.0 99.0 98.0 90.0 80.0 75.0 70.0 65.0 60.0 55.0 50.0 45.0 40.0 35.0 30.0 25.0 20.0 15.0 14.0 13.0 5.0 0.0
1.4 2.2 3.3 4.4 5.5 8.8 10.0 12.0 14.0 18.0 5.0 29.0 33.0 44.0 55.0 66.0 77.0 88.0 99.0 111.0 112.0 113.0 114.0 115.0 116.0
116.0 115.0 111.0 100.0 99.0 98.0 90.0 80.0 75.0 70.0 65.0 60.0 55.0 50.0 45.0 40.0 35.0 30.0 25.0 20.0 15.0 14.0 13.0 5.0 0.0
1.4 2.2 3.3 4.4 5.5 8.8 10.0 12.0 14.0 18.0 5.0 29.0 33.0 44.0 55.0 66.0 77.0 88.0 99.0 111.0 112.0 113.0 114.0 115.0 116.0
116.0 115.0 111.0 100.0 99.0 98.0 90.0 80.0 75.0 70.0 65.0 60.0 55.0 50.0 45.0 40.0 35.0 30.0 25.0 20.0 15.0 14.0 13.0 5.0 0.0
1.4 2.2 3.3 4.4 5.5 8.8 10.0 12.0 14.0 18.0 5.0 29.0 33.0 44.0 55.0 66.0 77.0 88.0 99.0 111.0 112.0 113.0 114.0 115.0 116.0
116.0 115.0 111.0 100.0 99.0 98.0 90.0 80.0 75.0 70.0 65.0 60.0 55.0 50.0 45.0 40.0 35.0 30.0 25.0 20.0 15.0 14.0 13.0 5.0 0.0
1.4 2.2 3.3 4.4 5.5 8.8 10.0 12.0 14.0 18.0 5.0 29.0 33.0 44.0 55.0 66.0 77.0 88.0 99.0 111.0 112.0 113.0 114.0 115.0 116.0
116.0 115.0 111.0 100.0 99.0 98.0 90.0 80.0 75.0 70.0 65.0 60.0 55.0 50.0 45.0 40.0 35.0 30.0 25.0 20.0 15.0 14.0 13.0 5.0 0.0
1.4 2.2 3.3 4.4 5.5 8.8 10.0 12.0 14.0 18.0 5.0 29.0 33.0 44.0 55.0 66.0 77.0 88.0 99.0 111.0 112.0 113.0 114.0 115.0 116.0
116.0 115.0 111.0 100.0 99.0 98.0 90.0 80.0 75.0 70.0 65.0 60.0 55.0 50.0 45.0 40.0 35.0 30.0 25.0 20.0 15.0 14.0 13.0 5.0 0.0
1.4 2.2 3.3 4.4 5.5 8.8 10.0 12.0 14.0 18.0 5.0 29.0 33.0 44.0 55.0 66.0 77.0 88.0 99.0 111.0 112.0 113.0 114.0 115.0 116.0
116.0 115.0 111.0 100.0 99.0 98.0 90.0 80.0 75.0 70.0 65.0 60.0 55.0 50.0 45.0 40.0 35.0 30.0 25.0 20.0 15.0 14.0 13.0 5.0 0.0
1.4 2.2 3.3 4.4 5.5 8.8 10.0 12.0 14.0 18.0 5.0 29.0 33.0 44.0 55.0 66.0 77.0 88.0 99.0 111.0 112.0 113.0 114.0 115.0 116.0
116.0 115.0 111.0 100.0 99.0 98.0 90.0 80.0 75.0 70.0 65.0 60.0 55.0 50.0 45.0 40.0 35.0 30.0 25.0 20.0 15.0 14.0 13.0 5.0 0.0
1.4 2.2 3.3 4.4 5.5 8.8 10.0 12.0 14.0 18.0 5.0 29.0 33.0 44.0 55.0 66.0 77.0 88.0 99.0 111.0 112.0 113.0 114.0 115.0 116.0
116.0 115.0 111.0 100.0 99.0 98.0 90.0 80.0 75.0 70.0 65.0 60.0 55.0 50.0 45.0 40.0 35.0 30.0 25.0 20.0 15.0 14.0 13.0 5.0 0.0
1.4 2.2 3.3 4.4 5.5 8.8 10.0 12.0 14.0 18.0 5.0 29.0 33.0 44.0 55.0 66.0 77.0 88.0 99.0 111.0 112.0 113.0 114.0 115.0 116.0
116.0 115.0 111.0 100.0 99.0 98.0 90.0 80.0 75.0 70.0 65.0 60.0 55.0 50.0 45.0 40.0 35.0 30.0 25.0 20.0 15.0 14.0 13.0 5.0 0.0
1.4 2.2 3.3 4.4 5.5 8.8 10.0 12.0 14.0 18.0 5.0 29.0 33.0 44.0 55.0 66.0 77.0 88.0 99.0 111.0 112.0 113.0 114.0 115.0 116.0
116.0 115.0 111.0 100.0 99.0 98.0 90.0 80.0 75.0 70.0 65.0 60.0 55.0 50.0 45.0 40.0 35.0 30.0 25.0 20.0 15.0 14.0 13.0 5.0 0.0
1.4 2.2 3.3 4.4 5.5 8.8 10.0 12.0 14.0 18.0 5.0 29.0 33.0 44.0 55.0 66.0 77.0 88.0 99.0 111.0 112.0 113.0 114.0 115.0 116.0
116.0 115.0 111.0 100.0 99.0 98.0 90.0 80.0 75.0 70.0 65.0 60.0 55.0 50.0 45.0 40.0 35.0 30.0 25.0 20.0 15.0 14.0 13.0 5.0 0.0
1.4 2.2 3.3 4.4 5.5 8.8 10.0 12.0 14.0 18.0 5.0 29.0 33.0 44.0 55.0 66.0 77.0 88.0 99.0 111.0 112.0 113.0 114.0 115.0 116.0
116.0 115.0 111.0 100.0 99.0 98.0 90.0 80.0 75.0 70.0 65.0 60.0 55.0 50.0 45.0 40.0 35.0 30.0 25.0 20.0 15.0 14.0 13.0 5.0 0.0
1.4 2.2 3.3 4.4 5.5 8.8 10.0 12.0 14.0 18.0 5.0 29.0 33.0 44.0 55.0 66.0 77.0 88.0 99.0 111.0 112.0 113.0 114.0 115.0 116.0
116.0 115.0 111.0 100.0 99.0 98.0 90.0 80.0 75.0 70.0 65.0 60.0 55.0 50.0 45.0 40.0 35.0 30.0 25.0 20.0 15.0 14.0 13.0 5.0 0.0
1.4 2.2 3.3 4.4 5.5 8.8 10.0 12.0 14.0 18.0 5.0 29.0 33.0 44.0 55.0 66.0 77.0 88.0 99.0 111.0 112.0 113.0 114.0 115.0 116.0
116.0 115.0 111.0 100.0 99.0 98.0 90.0 80.0 75.0 70.0 65.0 60.0 55.0 50.0 45.0 40.0 35.0 30.0 25.0 20.0 15.0 14.0 13.0 5.0 0.0
1.4 2.2 3.3 4.4 5.5 8.8 10.0 12.0 14.0 18.0 5.0 29.0 33.0 44.0 55.0 66.0 77.0 88.0 99.0 111.0 112.0 113.0 114.0 115.0 116.0
116.0 115.0 111.0 100.0 99.0 98.0 90.0 80.0 75.0 70.0 65.0 60.0 55.0 50.0 45.0 40.0 35.0 30.0 25.0 20.0 15.0 14.0 13.0 5.0 0.0
1.4 2.2 3.3 4.4 5.5 8.8 10.0 12.0 14.0 18.0 5.0 29.0 33.0 44.0 55.0 66.0 77.0 88.0 99.0 111.0 112.0 113.0 114.0 115.0 116.0
116.0 115.0 111.0 100.0 99.0 98.0 90.0 80.0 75.0 70.0 65.0 60.0 55.0 50.0 45.0 40.0 35.0 30.0 25.0 20.0 15.0 14.0 13.0 5.0 0.0
1.4 2.2 3.3 4.4 5.5 8.8 10.0 12.0 14.0 18.0 5.0 29.0 33.0 44.0 55.0 66.0 77.0 88.0 99.0 111.0 112.0 113.0 114.0 115.0 116.0
116.0 115.0 111.0 100.0 99.0 98.0 90.0 80.0 75.0 70.0 65.0 60.0 55.0 50.0 45.0 40.0 35.0 30.0 25.0 20.0 15.0 14.0 13.0 5.0 0.0
1.4 2.2 3.3 4.4 5.5 8.8 10.0 12.0 14.0 18.0 5.0 29.0 33.0 44.0 55.0 66.0 77.0 88.0 99.0 111.0 112.0 113.0 114.0 115.0 116.0
116.0 115.0 111.0 100.0 99.0 98.0 90.0 80.0 75.0 70.0 65.0 60.0 55.0 50.0 45.0 40.0 35.0 30.0 25.0 20.0 15.0 14.0 13.0 5.0 0.0
1.4 2.2 3.3 4.4 5.5 8.8 10.0 12.0 14.0 18.0 5.0 29.0 33.0 44.0 55.0 66.0 77.0 88.0 99.0 111.0 112.0 113.0 114.0 115.0 116.0
116.0 115.0 111.0 100.0 99.0 98.0 90.0 80.0 75.0 70.0 65.0 60.0 55.0 50.0 45.0 40.0 35.0 30.0 25.0 20.0 15.0 14.0 13.0 5.0 0.0
1.4 2.2 3.3 4.4 5.5 8.8 10.0 12.0 14.0 18.0 5.0 29.0 33.0 44.0 55.0 66.0 77.0 88.0 99.0 111.0 112.0 113.0 114.0 115.0 116.0
116.0 115.0 111.0 100.0 99.0 98.0 90.0 80.0 75.0 70.0 65.0 60.0 55.0 50.0 45.0 40.0 35.0 30.0 25.0 20.0 15.0 14.0 13.0 5.0 0.0
1.4 2.2 3.3 4.4 5.5 8.8 10.0 12.0 14.0 18.0 5.0 29.0 33.0 44.0 55.0 66.0 77.0 88.0 99.0 111.0 112.0 113.0 114.0 115.0 116.0
116.0 115.0 111.0 100.0 99.0 98.0 90.0 80.0 75.0 70.0 65.0 60.0 55.0 50.0 45.0 40.0 35.0 30.0 25.0 20.0 15.0 14.0 13.0 5.0 0.0
1.4 2.2 3.3 4.4 5.5 8.8 10.0 12.0 14.0 18.0 5.0 29.0 33.0 44.0 55.0 66.0 77.0 88.0 99.0 111.0 112.0 113.0 114.0 115.0 116.0
116.0 115.0 111.0 100.0 99.0 98.0 90.0 80.0 75.0 70.0 65.0 60.0 55.0 50.0 45.0 40.0 35.0 30.0 25.0 20.0 15.0 14.0 13.0 5.0 0.0
1.4 2.2 3.3 4.4 5.5 8.8 10.0 12.0 14.0 18.0 5.0 29.0 33.0 44.0 55.0 66.0 77.0 88.0 99.0 111.0 112.0 113.0 114.0 115.0 116.0
116.0 115.0 111.0 100.0 99.0 98.0 90.0 80.0 75.0 70.0 65.0 60.0 55.0 50.0 45.0 40.0 35.0 30.0 25.0 20.0 15.0 14.0 13.0 5.0 0.0
1.4 2.2 3.3 4.4 5.5 8.8 10.0 12.0 14.0 18.0 5.0 29.0 33.0 44.0 55.0 66.0 77.0 88.0 99.0 111.0 112.0 113.0 114.0 115.0 116.0
116.0 115.0 111.0 100.0 99.0 98.0 90.0 80.0 75.0 70.0 65.0 60.0 55.0 50.0 45.0 40.0 35.0 30.0 25.0 20.0 15.0 14.0 13.0 5.0 0.0
1.4 2.2 3.3 4.4 5.5 8.8 10.0 12.0 14.0 18.0 5.0 29.0 33.0 44.0 55.0 66.0 77.0 88.0 99.0 111.0 112.0 113.0 114.0 115.0 116.0
116.0 115.0 111.0 100.0 99.0 98.0 90.0 80.0 75.0 70.0 65.0 60.0 55.0 50.0 45.0 40.0 35.0 30.0 25.0 20.0 15.0 14.0 13.0 5.0 0.0
1.4 2.2 3.3 4.4 5.5 8.8 10.0 12.0 14.0 18.0 5.0 29.0 33.0 44.0 55.0 66.0 77.0 88.0 99.0 111.0 112.0 113.0 114.0 115.0 116.0
116.0 115.0 111.0 100.0 99.0 98.0 90.0 80.0 75.0 70.0 65.0 60.0 55.0 50.0 45.0 40.0 35.0 30.0 25.0 20.0 15.0 14.0 13.0 5.0 0.0
1.4 2.2 3.3 4.4 5.5 8.8 10.0 12.0 14.0 18.0 5.0 29.0 33.0 44.0 55.0 66.0 77.0 88.0 99.0 111.0 112.0 113.0 114.0 115.0 116.0
116.0 115.0 111.0 100.0 99.0 98.0 90.0 80.0 75.0 70.0 65.0 60.0 55.0 50.0 45.0 40.0 35.0 30.0 25.0 20.0 15.0 14.0 13.0 5.0 0.0
1.4 2.2 3.3 4.4 5.5 8.8 10.0 12.0 14.0 18.0 5.0 29.0 33.0 44.0 55.0 66.0 77.0 88.0 99.0 111.0 112.0 113.0 114.0 115.0 116.0
116.0 115.0 111.0 100.0 99.0 98.0 90.0 80.0 75.0 70.0 65.0 60.0 55.0 50.0 45.0 40.0 35.0 30.0 25.0 20.0 15.0 14.0 13.0 5.0 0.0
1.4 2.2 3.3 4.4 5.5 8.8 10.0 12.0 14.0 18.0 5.0 29.0 33.0 44.0 55.0 66.0 77.0 88.0 99.0 111.0 112.0 113.0 114.0 115.0 116.0
116.0 115.0 111.0 100.0 99.0 98.0 90.0 80.0 75.0 70.0 65.0 60.0 55.0 50.0 45.0 40.0 35.0 30.0 25.0 20.0 15.0 14.0 13.0 5.0 0.0
1.4 2.2 3.3 4.4 5.5 8.8 10.0 12.0 14.0 18.0 5.0 29.0 33.0 44.0 55.0 66.0 77.0 88.0 99.0 111.0 112.0 113.0 114.0 115.0 116.0
116.0 115.0 111.0 100.0 99.0 98.0 90.0 80.0 75.0 70.0 65.0 60.0 55.0 50.0 45.0 40.0 35.0 30.0 25.0 20.0 15.0 14.0 13.0 5.0 0.0
1.4 2.2 3.3 4.4 5.5 8.8 10.0 12.0 14.0 18.0 5.0 29.0 33.0 44.0 55.0 66.0 77.0 88.0 99.0 111.0 112.0 113.0 114.0 115.0 116.0
116.0 115.0 111.0 100.0 99.0 98.0 90.0 80.0 75.0 70.0 65.0 60.0 55.0 50.0 45.0 40.0 35.0 30.0 25.0 20.0 15.0 14.0 13.0 5.0 0.0
1.4 2.2 3.3 4.4 5.5 8.8 10.0 12.0 14.0 18.0 5.0 29.0 33.0 44.0 55.0 66.0 77.0 88.0 99.0 111.0 112.0 113.0 114.0 115.0 116.0
116.0 115.0 111.0 100.0 99.0 98.0 90.0 80.0 75.0 70.0 65.0 60.0 55.0 50.0 45.0 40.0 35.0 30.0 25.0 20.0 15.0 14.0 13.0 5.0 0.0
1.4 2.2 3.3 4.4 5.5 8.8 10.0 12.0 14.0 18.0 5.0 29.0 33.0 44.0 55.0 66.0 77.0 88.0 99.0 111.0 112.0 113.0 114.0 115.0 116.0
116.0 115.0 111.0 100.0 99.0 98.0 90.0 80.0 75.0 70.0 65.0 60.0 55.0 50.0 45.0 40.0 35.0 30.0 25.0 20.0 15.0 14.0 13.0 5.0 0.0
1.4 2.2 3.3 4.4 5.5 8.8 10.0 12.0 14.0 18.0 5.0 29.0 33.0 44.0 55.0 66.0 77.0 88.0 99.0 111.0 112.0 113.0 114.0 115.0 116.0
116.0 115.0 111.0 100.0 99.0 98.0 90.0 80.0 75.0 70.0 65.0 60.0 55.0 50.0 45.0 40.0 35.0 30.0 25.0 20.0 15.0 14.0 13.0 5.0 0.0
1.4 2.2 3.3 4.4 5.5 8.8 10.0 12.0 14.0 18.0 5.0 29.0 33.0 44.0 55.0 66.0 77.0 88.0 99.0 111.0 112.0 113.0 114.0 115.0 116.0
116.0 115.0 111.0 100.0 99.0 98.0 90.0 80.0 75.0 70.0 65.0 60.0 55.0 50.0 45.0 40.0 35.0 30.0 25.0 20.0 15.0 14.0 13.0 5.0 0.0
1.4 2.2 3.3 4.4 5.5 8.8 10.0 12.0 14.0 18.0 5.0 29.0 33.0 44.0 55.0 66.0 77.0 88.0 99.0 111.0 112.0 113.0 114.0 115.0 116.0
116.0 115.0 111.0 100.0 99.0 98.0 90.0 80.0 75.0 70.0 65.0 60.0 55.0 50.0 45.0 40.0 35.0 30.0 25.0 20.0 15.0 14.0 13.0 5.0 0.0
1.4 2.2 3.3 4.4 5.5 8.8 10.0 12.0 14.0 18.0 5.0 29.0 33.0 44.0 55.0 66.0 77.0 88.0 99.0 111.0 112.0 113.0 114.0 115.0 116.0
116.0 115.0 111.0 100.0 99.0 98.0 90.0 80.0 75.0 70.0 65.0 60.0 55.0 50.0 45.0 40.0 35.0 30.0 25.0 20.0 15.0 14.0 13.0 5.0 0.0
1.4 2.2 3.3 4.4 5.5 8.8 10.0 12.0 14.0 18.0 5.0 29.0 33.0 44.0 55.0 66.0 77.0 88.0 99.0 111.0 112.0 113.0 114.0 115.0 116.0
116.0 115.0 111.0 100.0 99.0 98.0 90.0 80.0 75.0 70.0 65.0 60.0 55.0 50.0 45.0 40.0 35.0 30.0 25.0 20.0 15.0 14.0 13.0 5.0 0.0
1.4 2.2 3.3 4.4 5.5 8.8 10.0 12.0 14.0 18.0 5.0 29.0 33.0 44.0 55.0 66.0 77.0 88.0 99.0 111.0 112.0 113.0 114.0 115.0 116.0
116.0 115.0 111.0 100.0 99.0 98.0 90.0 80.0 75.0 70.0 65.0 60.0 55.0 50.0 45.0 40.0 35.0 30.0 25.0 20.0 15.0 14.0 13.0 5.0 0.0
1.4 2.2 3.3 4.4 5.5 8.8 10.0 12.0 14.0 18.0 5.0 29.0 33.0 44.0 55.0 66.0 77.0 88.0 99.0 111.0 112.0 113.0 114.0 115.0 116.0
116.0 115.0 111.0 100.0 99.0 98.0 90.0 80.0 75.0 70.0 65.0 60.0 55.0 50.0 45.0 40.0 35.0 30.0 25.0 20.0 15.0 14.0 13.0 5.0 0.0
1.4 2.2 3.3 4.4 5.5 8.8 10.0 12.0 14.0 18.0 5.0 29.0 33.0 44.0 55.0 66.0 77.0 88.0 99.0 111.0 112.0 113.0 114.0 115.0 116.0
116.0 115.0 111.0 100.0 99.0 98.0 90.0 80.0 75.0 70.0 65.0 60.0 55.0 50.0 45.0 40.0 35.0 30.0 25.0 20.0 15.0 14.0 13.0 5.0 0.0
1.4 2.2 3.3 4.4 5.5 8.8 10.0 12.0 14.0 18.0 5.0 29.0 33.0 44.0 55.0 66.0 77.0 88.0 99.0 111.0 112.0 113.0 114.0 115.0 116.0
116.0 115.0 111.0 100.0 99.0 98.0 90.0 80.0 75.0 70.0 65.0 60.0 55.0 50.0 45.0 40.0 35.0 30.0 25.0 20.0 15.0 14.0 13.0 5.0 0.0
1.4 2.2 3.3 4.4 5.5 8.8 10.0 12.0 14.0 18.0 5.0 29.0 33.0 44.0 55.0 66.0 77.0 88.0 99.0 111.0 112.0 113.0 114.0 115.0 116.0
116.0 115.0 111.0 100.0 99.0 98.0 90.0 80.0 75.0 70.0 65.0 60.0 55.0 50.0 45.0 40.0 35.0 30.0 25.0 20.0 15.0 14.0 13.0 5.0 0.0
1.4 2.2 3.3 4.4 5.5 8.8 10.0 12.0 14.0 18.0 5.0 29.0 33.0 44.0 55.0 66.0 77.0 88.0 99.0 111.0 112.0 113.0 114.0 115.0 116.0
116.0 115.0 111.0 100.0 99.0 98.0 90.0 80.0 75.0 70.0 65.0 60.0 55.0 50.0 45.0 40.0 35.0 30.0 25.0 20.0 15.0 14.0 13.0 5.0 0.0
1.4 2.2 3.3 4.4 5.5 8.8 10.0 12.0 14.0 18.0 5.0 29.0 33.0 44.0 55.0 66.0 77.0 88.0 99.0 111.0 112.0 113.0 114.0 115.0 116.0
116.0 115.0 111.0 100.0 99.0 98.0 90.0 80.0 75.0 70.0 65.0 60.0 55.0 50.0 45.0 40.0 35.0 30.0 25.0 20.0 15.0 14.0 13.0 5.0 0.0
1.4 2.2 3.3 4.4 5.5 8.8 10.0 12.0 14.0 18.0 5.0 29.0 33.0 44.0 55.0 66.0 77.0 88.0 99.0 111.0 112.0 113.0 114.0 115.0 116.0
116.0 115.0 111.0 100.0 99.0 98.0 90.0 80.0 75.0 70.0 65.0 60.0 55.0 50.0 45.0 40.0 35.0 30.0 25.0 20.0 15.0 14.0 13.0 5.0 0.0
1.4 2.2 3.3 4.4 5.5 8.8 10.0 12.0 14.0 18.0 5.0 29.0 33.0 44.0 55.0 66.0 77.0 88.0 99.0 111.0 112.0 113.0 114.0 115.0 116.0
116.0 115.0 111.0 100.0 99.0 98.0 90.0 80.0 75.0 70.0 65.0 60.0 55.0 50.0 45.0 40.0 35.0 30.0 25.0 20.0 15.0 14.0 13.0 5.0 0.0
1.4 2.2 3.3 4.4 5.5 8.8 10.0 12.0 14.0 18.0 5.0 29.0 33.0 44.0 55.0 66.0 77.0 88.0 99.0 111.0 112.0 113.0 114.0 115.0 116.0
116.0 115.0 111.0 100.0 99.0 98.0 90.0 80.0 75.0 70.0 65.0 60.0 55.0 50.0 45.0 40.0 35.0 30.0 25.0 20.0 15.0 14.0 13.0 5.0 0.0
1.4 2.2 3.3 4.4 5.5 8.8 10.0 12.0 14.0 18.0 5.0 29.0 33.0 44.0 55.0 66.0 77.0 88.0 99.0 111.0 112.0 113.0 114.0 115.0 116.0
116.0 115.0 111.0 100.0 99.0 98.0 90.0 80.0 75.0 70.0 65.0 60.0 55.0 50.0 45.0 40.0 35.0 30.0 25.0 20.0 15.0 14.0 13.0 5.0 0.0
1.4 2.2 3.3 4.4 5.5 8.8 10.0 12.0 14.0 18.0 5.0 29.0 33.0 44.0 55.0 66.0 77.0 88.0 99.0 111.0 112.0 113.0 114.0 115.0 116.0
116.0 115.0 111.0 100.0 99.0 98.0 90.0 80.0 75.0 70.0 65.0 60.0 55.0 50.0 45.0 40.0 35.0 30.0 25.0 20.0 15.0 14.0 13.0 5.0 0.0
1.4 2.2 3.3 4.4 5.5 8.8 10.0 12.0 14.0 18.0 5.0 29.0 33.0 44.0 55.0 66.0 77.0 88.0 99.0 111.0 112.0 113.0 114.0 115.0 116.0
116.0 115.0 111.0 100.0 99.0 98.0 90.0 80.0 75.0 70.0 65.0 60.0 55.0 50.0 45.0 40.0 35.0 30.0 25.0 20.0 15.0 14.0 13.0 5.0 0.0
1.4 2.2 3.3 4.4 5.5 8.8 10.0 12.0 14.0 18.0 5.0 29.0 33.0 44.0 55.0 66.0 77.0 88.0 99.0 111.0 112.0 113.0 114.0 115.0 116.0
116.0 115.0 111.0 100.0 99.0 98.0 90.0 80.0 75.0 70.0 65.0 60.0 55.0 50.0 45.0 40.0 35.0 30.0 25.0 20.0 15.0 14.0 13.0 5.0 0.0
1.4 2.2 3.3 4.4 5.5 8.8 10.0 12.0 14.0 18.0 5.0 29.0 33.0 44.0 55.0 66.0 77.0 88.0 99.0 111.0 112.0 113.0 114.0 115.0 116.0
116.0 115.0 111.0 100.0 99.0 98.0 90.0 80.0 75.0 70.0 65.0 60.0 55.0 50.0 45.0 40.0 35.0 30.0 25.0 20.0 15.0 14.0 13.0 5.0 0.0
1.4 2.2 3.3 4.4 5.5 8.8 10.0 12.0 14.0 18.0 5.0 29.0 33.0 44.0 55.0 66.0 77.0 88.0 99.0 111.0 112.0 113.0 114.0 115.0 116.0
116.0 115.0 111.0 100.0 99.0 98.0 90.0 80.0 75.0 70.0 65.0 60.0 55.0 50.0 45.0 40.0 35.0 30.0 25.0 20.0 15.0 14.0 13.0 5.0 0.0
1.4 2.2 3.3 4.4 5.5 8.8 10.0 12.0 14.0 18.0 5.0 29.0 33.0 44.0 55.0 66.0 77.0 88.0 99.0 111.0 112.0 113.0 114.0 115.0 116.0
116.0 115.0 111.0 100.0 99.0 98.0 90.0 80.0 75.0 70.0 65.0 60.0 55.0 50.0 45.0 40.0 35.0 30.0 25.0 20.0 15.0 14.0 13.0 5.0 0.0
1.4 2.2 3.3 4.4 5.5 8.8 10.0 12.0 14.0 18.0 5.0 29.0 33.0 44.0 55.0 66.0 77.0 88.0 99.0 111.0 112.0 113.0 114.0 115.0 116.0
116.0 115.0 111.0 100.0 99.0 98.0 90.0 80.0 75.0 70.0 65.0 60.0 55.0 50.0 45.0 40.0 35.0 30.0 25.0 20.0 15.0 14.0 13.0 5.0 0.0
1.4 2.2 3.3 4.4 5.5 8.8 10.0 12.0 14.0 18.0 5.0 29.0 33.0 44.0 55.0 66.0 77.0 88.0 99.0 111.0 112.0 113.0 114.0 115.0 116.0
116.0 115.0 111.0 100.0 99.0 98.0 90.0 80.0 75.0 70.0 65.0 60.0 55.0 50.0 45.0 40.0 35.0 30.0 25.0 20.0 15.0 14.0 13.0 5.0 0.0
1.4 2.2 3.3 4.4 5.5 8.8 10.0 12.0 14.0 18.0 5.0 29.0 33.0 44.0 55.0 66.0 77.0 88.0 99.0 111.0 112.0 113.0 114.0 115.0 116.0
116.0 115.0 111.0 100.0 99.0 98.0 90.0 80.0 75.0 70.0 65.0 60.0 55.0 50.0 45.0 40.0 35.0 30.0 25.0 20.0 15.0 14.0 13.0 5.0 0.0
1.4 2.2 3.3 4.4 5.5 8.8 10.0 12.0 14.0 18.0 5.0 29.0 33.0 44.0 55.0 66.0 77.0 88.0 99.0 111.0 112.0 113.0 114.0 115.0 116.0
116.0 115.0 111.0 100.0 99.0 98.0 90.0 80.0 75.0 70.0 65.0 60.0 55.0 50.0 45.0 40.0 35.0 30.0 25.0 20.0 15.0 14.0 13.0 5.0 0.0
1.4 2.2 3.3 4.4 5.5 8.8 10.0 12.0 14.0 18.0 5.0 29.0 33.0 44.0 55.0 66.0 77.0 88.0 99.0 111.0 112.0 113.0 114.0 115.0 116.0
116.0 115.0 111.0 100.0 99.0 98.0 90.0 80.0 75.0 70.0 65.0 60.0 55.0 50.0 45.0 40.0 35.0 30.0 25.0 20.0 15.0 14.0 13.0 5.0 0.0
1.4 2.2 3.3 4.4 5.5 8.8 10.0 12.0 14.0 18.0 5.0 29.0 33.0 44.0 55.0 66.0 77.0 88.0 99.0 111.0 112.0 113.0 114.0 115.0 116.0
116.0 115.0 111.0 100.0 99.0 98.0 90.0 80.0 75.0 70.0 65.0 60.0 55.0 50.0 45.0 40.0 35.0 30.0 25.0 20.0 15.0 14.0 13.0 5.0 0.0
